Time [s], Pressure [PSI]
0.0, 2.172
0.049, 3.476
0.098, 5.648
0.147, 8.689
0.196, 11.947
0.245, 14.989
0.295, 17.813
0.345, 18.247
0.394, 18.03
0.443, 17.813
0.492, 17.378
0.541, 17.161
0.591, 16.944
0.64, 16.726
0.689, 16.726
0.738, 16.509
0.788, 16.509
0.837, 16.509
0.887, 16.292
0.936, 16.292
0.985, 16.292
1.034, 16.292
1.083, 16.075
1.132, 16.075
1.181, 16.075
1.232, 16.075
1.281, 15.857
1.33, 15.857
1.379, 15.857
1.428, 15.857
1.477, 15.857
1.527, 15.64
1.576, 15.64
1.625, 15.64
1.674, 15.64
1.724, 15.423
1.773, 15.423
1.822, 15.206
1.872, 15.206
1.921, 15.206
1.97, 15.206
2.019, 15.206
2.068, 14.989
2.117, 15.206
2.167, 15.206
2.217, 14.989
2.266, 14.989
2.315, 14.989
2.364, 14.989
2.413, 14.771
2.462, 14.989
2.512, 14.771
2.561, 14.989
2.61, 14.771
2.66, 14.771
2.709, 14.771
2.758, 14.771
2.808, 14.771
2.857, 14.771
2.906, 14.771
2.955, 14.554
3.004, 14.554
3.053, 14.554
3.103, 14.554
3.153, 14.554
3.202, 14.554
3.251, 14.554
3.3, 14.554
3.349, 14.337
3.398, 14.554
3.448, 14.554
3.497, 14.337
3.547, 14.337
3.596, 14.337
3.645, 14.337
3.694, 14.337
3.743, 14.337
3.793, 14.12
3.842, 14.337
3.891, 14.12
3.94, 14.12
3.99, 14.12
4.039, 14.12
4.089, 14.12
4.138, 14.12
4.187, 13.902
4.236, 13.902
4.285, 14.12
4.334, 14.12
4.383, 14.12
4.433, 13.902
4.483, 13.902
4.532, 13.902
4.581, 13.902
4.63, 13.902
4.679, 13.902
4.729, 13.685
4.778, 13.685
4.827, 13.685
4.876, 13.685
4.926, 13.685
4.975, 13.685
5.024, 13.685
5.074, 13.685
5.123, 13.685
5.172, 13.685
5.221, 13.468
5.27, 13.685
5.319, 13.468
5.37, 13.468
5.419, 13.468
5.468, 13.468
5.517, 13.468
5.566, 13.468
5.615, 13.468
5.664, 13.251
5.714, 13.251
5.763, 13.468
5.813, 13.251
5.862, 13.468
5.911, 13.251
5.96, 13.251
6.01, 13.251
6.059, 13.251
6.108, 13.251
6.157, 13.034
6.206, 13.034
6.256, 13.251
6.306, 13.034
6.355, 13.034
6.404, 13.034
6.453, 13.034
6.502, 13.034
6.551, 13.034
6.6, 13.034
6.65, 13.034
6.699, 13.034
6.749, 13.034
6.798, 13.034
6.847, 13.034
6.896, 12.816
6.946, 12.816
6.995, 12.816
7.044, 12.816
7.093, 12.816
7.142, 12.816
7.192, 12.816
7.241, 12.599
7.291, 12.816
7.34, 12.599
7.389, 12.599
7.438, 12.599
7.487, 12.599
7.536, 12.599
7.586, 12.382
7.636, 12.599
7.685, 12.599
7.734, 12.599
7.783, 12.382
7.832, 12.382
7.881, 12.382
7.931, 12.382
7.98, 12.382
8.029, 12.382
8.079, 12.382
8.128, 12.382
8.177, 12.165
8.227, 12.382
8.276, 12.165
8.325, 12.382
8.374, 12.165
8.423, 12.165
8.472, 12.165
8.522, 12.165
8.572, 12.165
8.621, 12.165
8.67, 12.165
8.719, 12.165
8.768, 12.165
8.817, 12.165
8.867, 11.947
8.916, 11.947
8.966, 11.947
9.015, 11.947
9.064, 11.947
9.113, 11.947
9.162, 11.947
9.212, 11.947
9.261, 11.947
9.31, 11.947
9.359, 11.947
9.408, 11.73
9.458, 11.73
9.508, 11.947
9.557, 11.73
9.606, 11.73
9.655, 11.73
9.704, 11.73
9.753, 11.73
9.802, 11.73
9.852, 11.513
9.902, 11.73
9.951, 11.513
10.0, 11.73
10.049, 11.513
10.098, 11.513
10.148, 11.513
10.197, 11.513
10.247, 11.513
10.296, 11.513
10.345, 11.513
10.394, 11.296
10.443, 11.296
10.493, 11.296
10.543, 11.296
10.592, 11.296
10.641, 11.296
10.69, 11.296
10.739, 11.296
10.789, 11.296
10.839, 11.079
10.888, 11.079
10.937, 11.079
10.986, 11.079
11.035, 11.079
11.085, 11.079
11.135, 11.079
11.184, 11.079
11.233, 11.079
11.282, 11.079
11.331, 11.079
11.38, 10.861
11.431, 10.861
11.48, 10.861
11.529, 10.861
11.578, 10.861
11.627, 10.861
11.676, 10.861
11.727, 10.427
11.776, 10.427
11.825, 10.427
11.874, 10.427
11.923, 10.644
11.972, 10.427
12.023, 10.427
12.072, 10.644
12.121, 10.427
12.17, 10.427
12.219, 10.21
12.268, 10.427
12.318, 10.427
12.368, 10.21
12.417, 10.21
12.466, 10.427
12.515, 10.427
12.565, 10.21
12.614, 10.21
12.664, 10.21
12.713, 10.21
12.762, 10.21
12.811, 10.21
12.861, 9.992
12.91, 9.992
12.959, 9.992
13.009, 9.992
13.058, 9.992
13.107, 9.992
13.156, 9.992
13.205, 9.992
13.255, 9.992
13.305, 9.992
13.354, 9.775
13.403, 9.775
13.452, 9.775
13.501, 9.775
13.55, 9.775
13.6, 9.775
13.65, 9.775
13.699, 9.775
13.748, 9.775
13.797, 9.558
13.846, 9.775
13.895, 9.775
13.945, 9.558
13.995, 9.558
14.044, 9.558
14.093, 9.558
14.142, 9.341
14.191, 9.341
14.24, 9.341
14.29, 9.341
14.339, 9.341
14.389, 9.341
14.438, 9.341
14.487, 9.341
14.536, 9.123
14.586, 9.341
14.635, 9.123
14.684, 9.123
14.734, 9.123
14.783, 9.123
14.832, 9.123
14.882, 9.123
14.931, 9.123
14.98, 9.123
15.029, 9.123
15.078, 8.906
15.128, 8.906
15.177, 8.906
15.227, 8.906
15.276, 8.906
15.325, 8.689
15.374, 8.906
15.423, 8.689
15.472, 8.906
15.523, 8.689
15.572, 8.689
15.621, 8.689
15.67, 8.689
15.719, 8.689
15.768, 8.472
15.817, 8.472
15.868, 8.689
15.917, 8.472
15.966, 8.472
16.015, 8.472
16.064, 8.255
16.113, 8.472
16.163, 8.472
16.212, 8.255
16.262, 8.255
16.311, 8.255
16.36, 8.255
16.409, 8.255
16.458, 8.255
16.508, 8.255
16.557, 8.255
16.607, 8.037
16.656, 8.037
16.705, 8.037
16.754, 8.037
16.804, 8.037
16.853, 8.037
16.902, 8.037
16.951, 7.82
17.001, 7.82
17.05, 7.82
17.099, 7.82
17.149, 7.603
17.198, 7.82
17.247, 7.82
17.296, 7.603
17.345, 7.603
17.395, 7.603
17.445, 7.603
17.494, 7.603
17.543, 7.603
17.592, 7.386
17.641, 7.386
17.69, 7.386
17.739, 7.386
17.79, 7.386
17.839, 7.386
17.888, 7.386
17.937, 7.168
17.986, 7.168
18.035, 7.168
18.085, 7.168
18.134, 7.168
18.184, 7.168
18.233, 6.951
18.282, 6.951
18.331, 6.951
18.381, 6.951
18.43, 6.951
18.479, 6.734
18.529, 6.951
18.578, 6.951
18.627, 6.734
18.676, 6.734
18.726, 6.734
18.775, 6.517
18.824, 6.517
18.874, 6.517
18.923, 6.517
18.972, 6.3
19.022, 6.3
19.071, 6.3
19.12, 6.3
19.169, 6.3
19.218, 6.082
19.268, 6.082
19.317, 6.082
19.367, 6.082
19.416, 6.082
19.465, 5.648
19.514, 5.648
19.563, 5.648
19.613, 5.648
19.663, 5.648
19.712, 5.431
19.761, 5.431
19.81, 5.431
19.859, 5.431
19.908, 5.213
19.957, 5.213
20.008, 5.213
20.057, 5.213
20.106, 5.213
20.155, 5.213
20.204, 4.996
20.253, 4.996
20.303, 4.996
20.353, 4.996
20.402, 4.779
20.451, 4.779
20.5, 4.779
20.549, 4.779
20.599, 4.562
20.648, 4.562
20.697, 4.562
20.747, 4.345
20.796, 4.345
20.845, 4.345
20.894, 4.127
20.944, 4.345
20.993, 4.127
21.042, 4.127
21.092, 3.91
21.141, 3.91
21.19, 3.91
21.24, 3.91
21.289, 3.693
21.338, 3.693
21.387, 3.693
21.436, 3.476
21.486, 3.476
21.535, 3.476
21.585, 3.258
21.634, 3.258
21.683, 3.258
21.732, 3.041
21.781, 3.041
21.831, 3.041
21.881, 3.041
21.93, 2.824
21.979, 2.824
22.028, 2.824
22.077, 2.824
22.126, 2.607
22.175, 2.607
22.226, 2.389
22.275, 2.389
22.324, 2.389
22.373, 2.389
22.422, 2.389
22.471, 2.172
22.521, 2.172
22.58, 2.172
